-3.58, -5.23
-3.58, -5.23
-3.08, -5.23
-2.58, -5.23
-2.08, -5.23
-1.58, -5.23
-1.08, -5.23
-0.58, -5.23
-0.08, -5.23
0.42, -5.23
0.92, -5.23
-3.58, -4.74
-3.08, -4.74
-2.58, -4.74
-2.08, -4.74
-2.08, -4.74
-1.58, -4.74
-1.08, -4.74
-0.58, -4.74
-0.08, -4.74
0.42, -4.74
-3.58, -4.25
-3.08, -4.25
-2.58, -4.25
-1.58, -4.25
-2.58, -4.25
-2.08, -4.25
-1.08, -4.25
-0.58, -4.25
-3.58, -3.76
-3.08, -3.76
-2.58, -3.76
-2.08, -3.76
-3.08, -3.76
-3.08, -3.27
-3.58, 0.64
-3.08, 0.64
-2.58, 1.13
-3.08, 1.13
-3.58, 1.13
-3.58, 1.62
-3.08, 1.62
-2.58, 1.62
-2.08, 1.13
-1.58, 1.13
-1.58, 1.62
-2.08, 1.62
-3.58, 2.11
-3.58, 2.60
-3.58, 3.09
-3.58, 4.07
-3.58, 4.56
-3.58, 3.58
-3.08, 2.11
-3.08, 2.60
-3.08, 3.09
-3.08, 3.09
-3.08, 3.58
-3.08, 4.07
-3.08, 4.56
-2.58, 4.56
-2.58, 2.11
-2.58, 2.60
-2.58, 3.09
-2.58, 3.58
-2.58, 4.07
-2.08, 2.11
-2.08, 3.09
-2.08, 3.09
-2.08, 3.58
-2.08, 4.07
-2.08, 4.56
-2.08, 2.60
-1.58, 2.11
-1.58, 2.60
-1.58, 3.09
-1.58, 3.58
-1.58, 4.07
-1.58, 4.56
-1.08, 1.62
-1.08, 2.11
-1.08, 3.09
-1.08, 3.09
-1.08, 4.07
-1.08, 4.56
-1.08, 2.11
-1.08, 2.60
-1.08, 2.60
-1.08, 3.58
-0.58, 2.11
-0.58, 2.60
-0.58, 3.09
-0.58, 4.07
-0.58, 4.56
-0.58, 3.58
-0.08, 2.60
-0.08, 3.58
-0.08, 3.09
-0.08, 4.07
-0.08, 4.56
0.42, 2.60
0.42, 3.58
0.42, 3.58
0.42, 4.07
0.42, 4.56
0.42, 4.56
0.42, 3.09
0.92, 3.09
0.92, 3.58
0.92, 4.07
0.92, 4.07
1.42, 3.58
1.42, 4.07
1.42, 4.56
3.41, 3.58
3.41, 3.58
3.41, 3.09
3.91, 3.09
4.41, 3.09
4.91, 3.58
5.41, 3.58
5.41, 4.56
5.41, 4.56
4.91, 4.07
4.91, 4.07
4.41, 4.07
3.91, 4.07
3.91, 3.58
4.41, 3.58
3.41, 4.07
5.41, 4.07
4.91, 4.56
